Time(sec),Position(mm),Speed(mm/s),Vibration(m/s²)
0.02,0.0006,250.0,0.1333
0.04,0.0019,250.0,0.1347
0.06,0.0037,250.0,0.0
0.08,0.0056,250.0,0.1446
0.1,0.0075,250.0,0.0
0.12,0.01,250.0,0.0
0.14,0.0131,250.0,0.2156
0.16,0.0163,250.0,0.0
0.18,0.0194,250.0,0.2177
0.2,0.0231,250.0,0.2647
0.22,0.0275,250.0,0.0
0.24,0.0319,250.0,0.2894
0.26,0.0363,250.0,0.2362
0.28,0.0406,250.0,0.3445
0.3,0.045,250.0,0.1639
0.32,0.0494,250.0,0.33
0.34,0.0538,250.0,0.1711
0.36,0.0581,250.0,0.1676
0.38,0.0625,250.0,0.0
0.4,0.0669,250.0,0.1402
0.42,0.0713,250.0,0.0
0.44,0.0756,250.0,0.1331
0.46,0.08,250.0,0.0
0.48,0.0844,250.0,0.1282
0.5,0.0888,250.0,0.134
0.52,0.0931,250.0,0.0
0.54,0.0975,250.0,0.0
0.56,0.1019,250.0,0.0
0.58,0.1063,250.0,0.1407
0.6,0.1106,250.0,0.0
0.62,0.115,250.0,0.0
0.64,0.1194,250.0,0.0
0.66,0.1238,250.0,0.0
0.68,0.1281,250.0,0.0
0.7,0.1325,250.0,0.0
0.72,0.1369,250.0,0.0
0.74,0.1412,250.0,0.0
0.76,0.1456,250.0,0.0
0.78,0.15,250.0,0.1289
0.8,0.1544,250.0,0.1782
0.82,0.1587,250.0,0.0
0.84,0.1631,250.0,0.2482
0.86,0.1675,250.0,0.0
0.88,0.1719,250.0,0.0
0.9,0.1762,250.0,0.0
0.92,0.1806,250.0,0.0
0.94,0.185,250.0,0.0
0.96,0.1894,250.0,0.0
0.98,0.1937,250.0,0.0
1.0,0.1981,250.0,0.1573
1.02,0.2025,250.0,0.1621
1.04,0.2069,250.0,0.0
1.06,0.2112,250.0,0.0
1.08,0.2156,250.0,0.1491
1.1,0.22,250.0,0.1226
1.12,0.2244,250.0,0.1758
1.14,0.2288,250.0,0.0
1.16,0.2331,250.0,0.0
1.18,0.2375,250.0,0.0
1.2,0.2419,250.0,0.0
1.22,0.2463,250.0,0.0
1.24,0.2506,250.0,0.2389
1.26,0.255,250.0,0.0
1.28,0.2594,250.0,0.127
1.3,0.2638,250.0,0.0
1.32,0.2681,250.0,0.0
1.34,0.2725,250.0,0.2627
1.36,0.2769,250.0,0.1206
1.38,0.2813,250.0,0.3058
1.4,0.2856,250.0,0.0
1.42,0.29,250.0,0.2987
1.44,0.2944,250.0,0.0
1.46,0.2988,250.0,0.0
1.48,0.3031,250.0,0.0
1.5,0.3075,250.0,0.2863
1.52,0.3119,250.0,0.0
1.54,0.3163,250.0,0.1319
1.56,0.3206,250.0,0.0
1.58,0.325,250.0,0.0
1.6,0.3294,250.0,0.208
1.62,0.3338,250.0,0.0
1.64,0.3381,250.0,0.0
1.66,0.3425,250.0,0.0
1.68,0.3469,250.0,0.0
1.7,0.3513,250.0,0.0
1.72,0.3556,250.0,0.0
1.74,0.36,250.0,0.0
1.76,0.3644,250.0,0.0
1.78,0.3688,250.0,0.0
1.8,0.3731,250.0,0.2015
1.82,0.3775,250.0,0.2151
1.84,0.3819,250.0,0.0
1.86,0.3862,250.0,0.0
1.88,0.3906,250.0,0.0
1.9,0.395,250.0,0.0
1.92,0.3994,250.0,0.0
1.94,0.4038,250.0,0.0
1.96,0.4081,250.0,0.0
1.98,0.4125,250.0,0.0
2.0,0.4169,250.0,0.0
2.02,0.4212,250.0,0.0
2.04,0.4256,250.0,0.0
2.06,0.43,250.0,0.1329
2.08,0.4344,250.0,0.1655
2.1,0.4388,250.0,0.1548
2.12,0.4431,250.0,0.161
2.14,0.4475,250.0,0.1965
2.16,0.4519,250.0,0.0
2.18,0.4563,250.0,0.0
2.2,0.4606,250.0,0.0
2.22,0.465,250.0,0.3146
2.24,0.4694,250.0,0.0
2.26,0.4737,250.0,0.1392
2.28,0.4781,250.0,0.1553
2.3,0.4825,250.0,0.0
2.32,0.4869,250.0,0.3
2.34,0.4913,250.0,0.0
2.36,0.4956,250.0,0.2865
2.38,0.5,250.0,0.0
2.4,0.5044,250.0,0.259
2.42,0.5088,250.0,0.0
2.44,0.5131,250.0,0.3484
2.46,0.5175,250.0,0.0
2.48,0.5219,250.0,0.3049
2.5,0.5263,250.0,0.0
2.52,0.5306,250.0,0.1802
2.54,0.535,250.0,0.1911
2.56,0.5394,250.0,0.0
2.58,0.5437,250.0,0.2722
2.6,0.5481,250.0,0.0
2.62,0.5525,250.0,0.2769
2.64,0.5569,250.0,0.0
2.66,0.5612,250.0,0.0
2.68,0.5656,250.0,0.0
2.7,0.57,250.0,0.0
2.72,0.5744,250.0,0.0
2.74,0.5788,250.0,0.0
2.76,0.5831,250.0,0.0
2.78,0.5875,250.0,0.1823
2.8,0.5919,250.0,0.0
2.82,0.5963,250.0,0.0
2.84,0.6006,250.0,0.0
2.86,0.605,250.0,0.0
2.88,0.6094,250.0,0.0
2.9,0.6138,250.0,0.158
2.92,0.6181,250.0,0.0
2.94,0.6225,250.0,0.1483
2.96,0.6269,250.0,0.0
2.98,0.6313,250.0,0.1479
3.0,0.6356,250.0,0.1852
3.02,0.64,250.0,0.0
3.04,0.6444,250.0,0.1819
3.06,0.6487,250.0,0.0
3.08,0.6531,250.0,0.0
3.1,0.6575,250.0,0.0
3.12,0.6619,250.0,0.0
3.14,0.6663,250.0,0.1472
3.16,0.6706,250.0,0.1392
3.18,0.675,250.0,0.1524
3.2,0.6794,250.0,0.0
3.22,0.6837,250.0,0.0
3.24,0.6881,250.0,0.0
3.26,0.6925,250.0,0.1217
3.28,0.6969,250.0,0.0
3.3,0.7013,250.0,0.2198
3.32,0.7056,250.0,0.0
3.34,0.71,250.0,0.1979
3.36,0.7144,250.0,0.0
3.38,0.7188,250.0,0.2433
3.4,0.7231,250.0,0.0
3.42,0.7275,250.0,0.0
3.44,0.7319,250.0,0.0
3.46,0.7362,250.0,0.0
3.48,0.7406,250.0,0.0
3.5,0.745,250.0,0.0
3.52,0.7494,250.0,0.1753
3.54,0.7538,250.0,0.0
3.56,0.7581,250.0,0.2523
3.58,0.7625,250.0,0.0
3.6,0.7669,250.0,0.1859
3.62,0.7713,250.0,0.0
3.64,0.7756,250.0,0.2345
3.66,0.78,250.0,0.0
3.68,0.7844,250.0,0.0
3.7,0.7888,250.0,0.1266
3.72,0.7931,250.0,0.0
3.74,0.7975,250.0,0.1915
3.76,0.8019,250.0,0.0
3.78,0.8062,250.0,0.1979
3.8,0.8106,250.0,0.0
3.82,0.815,250.0,0.227
3.84,0.8194,250.0,0.0
3.86,0.8237,250.0,0.0
3.88,0.8281,250.0,0.143
3.9,0.8325,250.0,0.0
3.92,0.8369,250.0,0.1255
3.94,0.8413,250.0,0.1567
3.96,0.8456,250.0,0.159
3.98,0.85,250.0,0.1408
4.0,0.8544,250.0,0.1364
4.02,0.8588,250.0,0.1347
4.04,0.8631,250.0,0.1974
4.06,0.8675,250.0,0.0
4.08,0.8719,250.0,0.0
4.1,0.8763,250.0,0.1262
4.12,0.8806,250.0,0.0
4.14,0.885,250.0,0.1257
4.16,0.8894,250.0,0.0
4.18,0.8937,250.0,0.0
4.2,0.8981,250.0,0.1228
4.22,0.9025,250.0,0.2658
4.24,0.9069,250.0,0.1705
4.26,0.9112,250.0,0.0
4.28,0.9156,250.0,0.1317
4.3,0.92,250.0,0.0
4.32,0.9244,250.0,0.1956
4.34,0.9288,250.0,0.0
4.36,0.9331,250.0,0.0
4.38,0.9375,250.0,0.0
4.4,0.9419,250.0,0.1534
4.42,0.9463,250.0,0.1543
4.44,0.9506,250.0,0.0
4.46,0.955,250.0,0.0
4.48,0.9594,250.0,0.0
4.5,0.9638,250.0,0.1708
4.52,0.9681,250.0,0.0
4.54,0.9725,250.0,0.1943
4.56,0.9769,250.0,0.0
4.58,0.9812,250.0,0.2307
4.6,0.9856,250.0,0.0
4.62,0.99,250.0,0.2318
4.64,0.9944,250.0,0.0
4.66,0.9987,250.0,0.127
4.68,1.0031,250.0,0.0
4.7,1.0075,250.0,0.0
4.72,1.0119,250.0,0.1772
4.74,1.0162,250.0,0.0
4.76,1.0206,250.0,0.2224
4.78,1.025,250.0,0.0
4.8,1.0294,250.0,0.2177
4.82,1.0338,250.0,0.0
4.84,1.0381,250.0,0.255
4.86,1.0425,250.0,0.0
4.88,1.0469,250.0,0.0
4.9,1.0512,250.0,0.0
4.92,1.0556,250.0,0.0
4.94,1.06,250.0,0.2113
4.96,1.0644,250.0,0.0
4.98,1.0687,250.0,0.1732
5.0,1.0731,250.0,0.0
5.02,1.0775,250.0,0.2063
5.04,1.0819,250.0,0.0
5.06,1.0862,250.0,0.0
5.08,1.0906,250.0,0.0
5.1,1.095,250.0,0.0
5.12,1.0994,250.0,0.1839
5.14,1.1037,250.0,0.0
5.16,1.1081,250.0,0.1291
5.18,1.1125,250.0,0.1367
5.2,1.1169,250.0,0.0
5.22,1.1212,250.0,0.1293
5.24,1.1256,250.0,0.1309
5.26,1.13,250.0,0.0
5.28,1.1344,250.0,0.0
5.3,1.1387,250.0,0.132
5.32,1.1431,250.0,0.0
5.34,1.1475,250.0,0.0
5.36,1.1519,250.0,0.0
5.38,1.1562,250.0,0.0
5.4,1.1606,250.0,0.0
5.42,1.165,250.0,0.2162
5.44,1.1694,250.0,0.0
5.46,1.1737,250.0,0.0
5.48,1.1781,250.0,0.1485
5.5,1.1825,250.0,0.0
5.52,1.1869,250.0,0.1803
5.54,1.1912,250.0,0.0
5.56,1.1956,250.0,0.18
5.58,1.2,250.0,0.0
5.6,1.2044,250.0,0.2448
5.62,1.2087,250.0,0.0
5.64,1.2131,250.0,0.0
5.66,1.2175,250.0,0.0
5.68,1.2219,250.0,0.0
5.7,1.2263,250.0,0.1709
5.72,1.2306,250.0,0.0
5.74,1.235,250.0,0.0
5.76,1.2394,250.0,0.0
5.78,1.2437,250.0,0.1314
5.8,1.2481,250.0,0.0
5.82,1.2525,250.0,0.1449
5.84,1.2569,250.0,0.0
5.86,1.2612,250.0,0.0
5.88,1.2656,250.0,0.1262
5.9,1.27,250.0,0.0
5.92,1.2744,250.0,0.153
5.94,1.2787,250.0,0.0
5.96,1.2831,250.0,0.1597
5.98,1.2875,250.0,0.0
6.0,1.2919,250.0,0.1607
6.02,1.2962,250.0,0.0
6.04,1.3006,250.0,0.2251
6.06,1.305,250.0,0.0
6.08,1.3094,250.0,0.0
6.1,1.3137,250.0,0.1356
6.12,1.3181,250.0,0.0
6.14,1.3225,250.0,0.0
6.16,1.3269,250.0,0.0
6.18,1.3312,250.0,0.1273
6.2,1.3356,250.0,0.0
6.22,1.34,250.0,0.1883
6.24,1.3444,250.0,0.1816
6.26,1.3487,250.0,0.0
6.28,1.3531,250.0,0.0
6.3,1.3575,250.0,0.0
6.32,1.3619,250.0,0.0
6.34,1.3662,250.0,0.0
6.36,1.3706,250.0,0.0
6.38,1.375,250.0,0.0
6.4,1.3794,250.0,0.1359
6.42,1.3837,250.0,0.1869
6.44,1.3881,250.0,0.0
6.46,1.3925,250.0,0.0
6.48,1.3969,250.0,0.0
6.5,1.4012,250.0,0.2089
6.52,1.4056,250.0,0.0
6.54,1.41,250.0,0.1846
6.56,1.4144,250.0,0.0
6.58,1.4187,250.0,0.2355
6.6,1.4231,250.0,0.0
6.62,1.4275,250.0,0.0
6.64,1.4319,250.0,0.0
6.66,1.4362,250.0,0.0
6.68,1.4406,250.0,0.0
6.7,1.445,250.0,0.0
6.72,1.4494,250.0,0.2278
6.74,1.4537,250.0,0.0
6.76,1.4581,250.0,0.1923
6.78,1.4625,250.0,0.1797
6.8,1.4669,250.0,0.235
6.82,1.4713,250.0,0.1747
6.84,1.4756,250.0,0.0
6.86,1.48,250.0,0.0
6.88,1.4844,250.0,0.0
6.9,1.4887,250.0,0.1274
6.92,1.4931,250.0,0.0
6.94,1.4975,250.0,0.0
6.96,1.5019,250.0,0.0
6.98,1.5062,250.0,0.1668
7.0,1.5106,250.0,0.0
7.02,1.515,250.0,0.0
7.04,1.5194,250.0,0.0
7.06,1.5237,250.0,0.0
7.08,1.5281,250.0,0.0
7.1,1.5325,250.0,0.0
7.12,1.5369,250.0,0.0
7.14,1.5412,250.0,0.1232
7.16,1.5456,250.0,0.0
7.18,1.55,250.0,0.0
7.2,1.5544,250.0,0.0
7.22,1.5587,250.0,0.1279
7.24,1.5631,250.0,0.0
7.26,1.5675,250.0,0.0
7.28,1.5719,250.0,0.0
7.3,1.5762,250.0,0.0
7.32,1.5806,250.0,0.0
7.34,1.585,250.0,0.0
7.36,1.5894,250.0,0.0
7.38,1.5937,250.0,0.0
7.4,1.5981,250.0,0.0
7.42,1.6025,250.0,0.1336
7.44,1.6069,250.0,0.0
7.46,1.6112,250.0,0.0
7.48,1.6156,250.0,0.0
7.5,1.62,250.0,0.0
7.52,1.6244,250.0,0.1448
7.54,1.6287,250.0,0.0
7.56,1.6331,250.0,0.0
7.58,1.6375,250.0,0.0
7.6,1.6419,250.0,0.1373
7.62,1.6462,250.0,0.0
7.64,1.6506,250.0,0.0
7.66,1.655,250.0,0.0
7.68,1.6594,250.0,0.0
7.7,1.6638,250.0,0.1255
7.72,1.6681,250.0,0.0
7.74,1.6725,250.0,0.124
7.76,1.6769,250.0,0.0
7.78,1.6812,250.0,0.1431
7.8,1.6856,250.0,0.0
7.82,1.69,250.0,0.1994
7.84,1.6944,250.0,0.0
7.86,1.6987,250.0,0.1519
7.88,1.7031,250.0,0.0
7.9,1.7075,250.0,0.0
7.92,1.7119,250.0,0.0
7.94,1.7162,250.0,0.0
7.96,1.7206,250.0,0.2264
7.98,1.725,250.0,0.0
8.0,1.7294,250.0,0.1359
8.02,1.7337,250.0,0.1218
8.04,1.7381,250.0,0.153
8.06,1.7425,250.0,0.0
8.08,1.7469,250.0,0.2099
8.1,1.7512,250.0,0.0
8.12,1.7556,250.0,0.0
8.14,1.76,250.0,0.0
8.16,1.7644,250.0,0.0
8.18,1.7687,250.0,0.0
8.2,1.7731,250.0,0.0
8.22,1.7775,250.0,0.0
8.24,1.7819,250.0,0.0
8.26,1.7862,250.0,0.1298
8.28,1.7906,250.0,0.0
8.3,1.795,250.0,0.2258
8.32,1.7994,250.0,0.0
8.34,1.8038,250.0,0.0
8.36,1.8081,250.0,0.0
8.38,1.8125,250.0,0.0
8.4,1.8169,250.0,0.0
8.42,1.8212,250.0,0.1213
8.44,1.8256,250.0,0.0
8.46,1.83,250.0,0.1716
8.48,1.8344,250.0,0.1413
8.5,1.8387,250.0,0.1957
8.52,1.8431,250.0,0.0
8.54,1.8475,250.0,0.0
8.56,1.8519,250.0,0.0
8.58,1.8562,250.0,0.0
8.6,1.8606,250.0,0.0
8.62,1.865,250.0,0.1425
8.64,1.8694,250.0,0.155
8.66,1.8737,250.0,0.1255
8.68,1.8781,250.0,0.0
8.7,1.8825,250.0,0.0
8.72,1.8869,250.0,0.1457
8.74,1.8913,250.0,0.0
8.76,1.8956,250.0,0.0
8.78,1.9,250.0,0.0
8.8,1.9044,250.0,0.1312
8.82,1.9088,250.0,0.0
8.84,1.9131,250.0,0.0
8.86,1.9175,250.0,0.0
8.88,1.9219,250.0,0.1418
8.9,1.9262,250.0,0.0
8.92,1.9306,250.0,0.1618
8.94,1.935,250.0,0.1599
8.96,1.9394,250.0,0.0
8.98,1.9437,250.0,0.0
9.0,1.9481,250.0,0.0
9.02,1.9525,250.0,0.1481
9.04,1.9569,250.0,0.0
9.06,1.9612,250.0,0.1644
9.08,1.9656,250.0,0.0
9.1,1.97,250.0,0.164
9.12,1.9744,250.0,0.0
9.14,1.9787,250.0,0.2327
9.16,1.9831,250.0,0.0
9.18,1.9875,250.0,0.0
9.2,1.9919,250.0,0.0
9.22,1.9962,250.0,0.0
9.24,2.0006,250.0,0.159
9.26,2.005,250.0,0.0
9.28,2.0094,250.0,0.1449
9.3,2.0138,250.0,0.0
9.32,2.0181,250.0,0.1606
9.34,2.0225,250.0,0.0
9.36,2.0269,250.0,0.2234
9.38,2.0313,250.0,0.0
9.4,2.0356,250.0,0.0
9.42,2.04,250.0,0.0
9.44,2.0444,250.0,0.0
9.46,2.0487,250.0,0.0
9.48,2.0531,250.0,0.0
9.5,2.0575,250.0,0.0
9.52,2.0619,250.0,0.0
9.54,2.0663,250.0,0.155
9.56,2.0706,250.0,0.0
9.58,2.075,250.0,0.223
9.6,2.0794,250.0,0.0
9.62,2.0838,250.0,0.0
9.64,2.0881,250.0,0.0
9.66,2.0925,250.0,0.0
9.68,2.0969,250.0,0.0
9.7,2.1013,250.0,0.0
9.72,2.1056,250.0,0.0
9.74,2.11,250.0,0.0
9.76,2.1144,250.0,0.1847
9.78,2.1188,250.0,0.0
9.8,2.1231,250.0,0.1874
9.82,2.1275,250.0,0.0
9.84,2.1319,250.0,0.1705
9.86,2.1363,250.0,0.0
9.88,2.1406,250.0,0.0
9.9,2.145,250.0,0.0
9.92,2.1494,250.0,0.0
9.94,2.1538,250.0,0.0
9.96,2.1581,250.0,0.0
9.98,2.1625,250.0,0.0
10.0,2.1669,250.0,0.0
10.02,2.1713,250.0,0.212
10.04,2.1756,250.0,0.1617
10.06,2.18,250.0,0.2749
10.08,2.1844,250.0,0.1521
10.1,2.1888,250.0,0.0
10.12,2.1931,250.0,0.0
10.14,2.1975,250.0,0.0
10.16,2.2019,250.0,0.1935
10.18,2.2063,250.0,0.0
10.2,2.2106,250.0,0.1912
10.22,2.215,250.0,0.1356
10.24,2.2194,250.0,0.1529
10.26,2.2238,250.0,0.2305
10.28,2.2281,250.0,0.0
10.3,2.2325,250.0,0.1934
10.32,2.2369,250.0,0.0
10.34,2.2413,250.0,0.0
10.36,2.2456,250.0,0.0
10.38,2.25,250.0,0.1805
10.4,2.2544,250.0,0.0
10.42,2.2588,250.0,0.2079
10.44,2.2631,250.0,0.0
10.46,2.2675,250.0,0.0
10.48,2.2719,250.0,0.1502
10.5,2.2762,250.0,0.0
10.52,2.2806,250.0,0.2062
10.54,2.285,250.0,0.0
10.56,2.2894,250.0,0.1746
10.58,2.2938,250.0,0.0
10.6,2.2981,250.0,0.3564
10.62,2.3025,250.0,0.0
10.64,2.3069,250.0,0.2205
10.66,2.3113,250.0,0.0
10.68,2.3156,250.0,0.263
10.7,2.32,250.0,0.0
10.72,2.3244,250.0,0.2301
10.74,2.3287,250.0,0.0
10.76,2.3331,250.0,0.0
10.78,2.3375,250.0,0.0
10.8,2.3419,250.0,0.0
10.82,2.3463,250.0,0.1715
10.84,2.3506,250.0,0.0
10.86,2.355,250.0,0.1747
10.88,2.3594,250.0,0.1309
10.9,2.3638,250.0,0.2455
10.92,2.3681,250.0,0.0
10.94,2.3725,250.0,0.0
10.96,2.3769,250.0,0.0
10.98,2.3812,250.0,0.0
11.0,2.3856,250.0,0.0
11.02,2.39,250.0,0.0
11.04,2.3944,250.0,0.1638
11.06,2.3988,250.0,0.1252
11.08,2.4031,250.0,0.1721
11.1,2.4075,250.0,0.0
11.12,2.4119,250.0,0.2316
11.14,2.4163,250.0,0.0
11.16,2.4206,250.0,0.1204
11.18,2.425,250.0,0.135
11.2,2.4294,250.0,0.1754
11.22,2.4337,250.0,0.1831
11.24,2.4381,250.0,0.1351
11.26,2.4425,250.0,0.1689
11.28,2.4469,250.0,0.1321
11.3,2.4513,250.0,0.1578
11.32,2.4556,250.0,0.0
11.34,2.46,250.0,0.1785
11.36,2.4644,250.0,0.1432
11.38,2.4688,250.0,0.0
11.4,2.4731,250.0,0.0
11.42,2.4775,250.0,0.0
11.44,2.4819,250.0,0.1237
11.46,2.4862,250.0,0.0
11.48,2.4906,250.0,0.1544
11.5,2.495,250.0,0.0
11.52,2.4994,250.0,0.1778
11.54,2.5038,250.0,0.0
11.56,2.5081,250.0,0.22
11.58,2.5125,250.0,0.0
11.6,2.5169,250.0,0.0
11.62,2.5213,250.0,0.2708
11.64,2.5256,250.0,0.0
11.66,2.53,250.0,0.1377
11.68,2.5344,250.0,0.0
11.7,2.5388,250.0,0.2388
11.72,2.5431,250.0,0.0
11.74,2.5475,250.0,0.0
11.76,2.5519,250.0,0.0
11.78,2.5563,250.0,0.2161
11.8,2.5606,250.0,0.1929
11.82,2.565,250.0,0.2388
11.84,2.5694,250.0,0.2191
11.86,2.5738,250.0,0.0
11.88,2.5781,250.0,0.2141
11.9,2.5825,250.0,0.0
11.92,2.5869,250.0,0.2159
11.94,2.5913,250.0,0.0
11.96,2.5956,250.0,0.2386
11.98,2.6,250.0,0.0
12.0,2.6044,250.0,0.246
12.02,2.6088,250.0,0.0
12.04,2.6131,250.0,0.0
12.06,2.6175,250.0,0.0
12.08,2.6219,250.0,0.0
12.1,2.6263,250.0,0.0
12.12,2.6306,250.0,0.0
12.14,2.635,250.0,0.2452
12.16,2.6394,250.0,0.0
12.18,2.6438,250.0,0.1986
12.2,2.6481,250.0,0.0
12.22,2.6525,250.0,0.2267
12.24,2.6569,250.0,0.0
12.26,2.6613,250.0,0.2208
12.28,2.6656,250.0,0.0
12.3,2.67,250.0,0.0
12.32,2.6744,250.0,0.0
12.34,2.6788,250.0,0.0
12.36,2.6831,250.0,0.0
12.38,2.6875,250.0,0.1248
12.4,2.6919,250.0,0.0
12.42,2.6963,250.0,0.0
12.44,2.7006,250.0,0.1741
12.46,2.705,250.0,0.0
12.48,2.7094,250.0,0.288
12.5,2.7137,250.0,0.0
12.52,2.7181,250.0,0.0
12.54,2.7225,250.0,0.1278
12.56,2.7269,250.0,0.0
12.58,2.7313,250.0,0.1321
12.6,2.7356,250.0,0.0
12.62,2.74,250.0,0.0
12.64,2.7444,250.0,0.1523
12.66,2.7488,250.0,0.1543
12.68,2.7531,250.0,0.0
12.7,2.7575,250.0,0.2037
12.72,2.7619,250.0,0.0
12.74,2.7662,250.0,0.0
12.76,2.7706,250.0,0.0
12.78,2.775,250.0,0.0
12.8,2.7794,250.0,0.0
12.82,2.7838,250.0,0.0
12.84,2.7881,250.0,0.1591
12.86,2.7925,250.0,0.1313
12.88,2.7969,250.0,0.1996
12.9,2.8013,250.0,0.2284
12.92,2.8056,250.0,0.0
12.94,2.81,250.0,0.1772
12.96,2.8144,250.0,0.0
12.98,2.8187,250.0,0.1729
13.0,2.8231,250.0,0.0
13.02,2.8275,250.0,0.0
13.04,2.8319,250.0,0.0
13.06,2.8363,250.0,0.0
13.08,2.8406,250.0,0.0
13.1,2.845,250.0,0.1422
13.12,2.8494,250.0,0.2021
13.14,2.8538,250.0,0.0
13.16,2.8581,250.0,0.1283
13.18,2.8625,250.0,0.0
13.2,2.8669,250.0,0.154
13.22,2.8712,250.0,0.1215
13.24,2.8756,250.0,0.2226
13.26,2.88,250.0,0.0
13.28,2.8844,250.0,0.2509
13.3,2.8888,250.0,0.0
13.32,2.8931,250.0,0.0
13.34,2.8975,250.0,0.224
13.36,2.9019,250.0,0.0
13.38,2.9063,250.0,0.2554
13.4,2.9106,250.0,0.0
13.42,2.915,250.0,0.2027
13.44,2.9194,250.0,0.0
13.46,2.9237,250.0,0.2819
13.48,2.9281,250.0,0.0
13.5,2.9325,250.0,0.2503
13.52,2.9369,250.0,0.0
13.54,2.9413,250.0,0.2774
13.56,2.9456,250.0,0.0
13.58,2.95,250.0,0.0
13.6,2.9544,250.0,0.187
13.62,2.9588,250.0,0.0
13.64,2.9631,250.0,0.1508
13.66,2.9675,250.0,0.0
13.68,2.9719,250.0,0.1421
13.7,2.9763,250.0,0.0
13.72,2.9806,250.0,0.3012
13.74,2.985,250.0,0.0
13.76,2.9894,250.0,0.0
13.78,2.9938,250.0,0.129
13.8,2.9981,250.0,0.0
13.82,3.0025,250.0,0.1451
13.84,3.0069,250.0,0.0
13.86,3.0113,250.0,0.1699
13.88,3.0156,250.0,0.1743
13.9,3.02,250.0,0.2418
13.92,3.0244,250.0,0.2055
13.94,3.0288,250.0,0.22
13.96,3.0331,250.0,0.0
13.98,3.0375,250.0,0.0
14.0,3.0419,250.0,0.2218
14.02,3.0463,250.0,0.0
14.04,3.0506,250.0,0.166
14.06,3.055,250.0,0.1708
14.08,3.0594,250.0,0.1881
14.1,3.0638,250.0,0.1216
14.12,3.0681,250.0,0.1689
14.14,3.0725,250.0,0.1594
14.16,3.0769,250.0,0.0
14.18,3.0813,250.0,0.1245
14.2,3.0856,250.0,0.0
14.22,3.09,250.0,0.0
14.24,3.0944,250.0,0.0
14.26,3.0988,250.0,0.1631
14.28,3.1031,250.0,0.0
14.3,3.1075,250.0,0.0
14.32,3.1119,250.0,0.0
14.34,3.1163,250.0,0.0
14.36,3.1206,250.0,0.141
14.38,3.125,250.0,0.1338
14.4,3.1294,250.0,0.1444
14.42,3.1338,250.0,0.0
14.44,3.1381,250.0,0.1562
14.46,3.1425,250.0,0.0
14.48,3.1469,250.0,0.2006
14.5,3.1512,250.0,0.0
14.52,3.1556,250.0,0.1772
14.54,3.16,250.0,0.0
14.56,3.1644,250.0,0.2251
14.58,3.1688,250.0,0.0
14.6,3.1731,250.0,0.0
14.62,3.1775,250.0,0.0
14.64,3.1819,250.0,0.1505
14.66,3.1863,250.0,0.0
14.68,3.1906,250.0,0.0
14.7,3.195,250.0,0.1255
14.72,3.1994,250.0,0.0
14.74,3.2037,250.0,0.1521
14.76,3.2081,250.0,0.0
14.78,3.2125,250.0,0.2091
14.8,3.2169,250.0,0.0
14.82,3.2213,250.0,0.2432
14.84,3.2256,250.0,0.0
14.86,3.23,250.0,0.0
14.88,3.2344,250.0,0.0
14.9,3.2388,250.0,0.0
14.92,3.2431,250.0,0.1439
14.94,3.2475,250.0,0.0
14.96,3.2519,250.0,0.1519
14.98,3.2562,250.0,0.0
15.0,3.2606,250.0,0.1598
15.02,3.265,250.0,0.0
15.04,3.2694,250.0,0.2575
15.06,3.2738,250.0,0.1597
15.08,3.2781,250.0,0.0
15.1,3.2825,250.0,0.0
15.12,3.2869,250.0,0.0
15.14,3.2913,250.0,0.0
15.16,3.2956,250.0,0.0
15.18,3.3,250.0,0.1693
15.2,3.3044,250.0,0.0
15.22,3.3087,250.0,0.0
15.24,3.3131,250.0,0.0
15.26,3.3175,250.0,0.2071
15.28,3.3219,250.0,0.0
15.3,3.3263,250.0,0.0
15.32,3.3306,250.0,0.0
15.34,3.335,250.0,0.0
15.36,3.3394,250.0,0.1455
15.38,3.3438,250.0,0.1714
15.4,3.3481,250.0,0.2076
15.42,3.3525,250.0,0.2007
15.44,3.3569,250.0,0.165
15.46,3.3612,250.0,0.1791
15.48,3.3656,250.0,0.0
15.5,3.37,250.0,0.0
15.52,3.3744,250.0,0.0
15.54,3.3788,250.0,0.1464
15.56,3.3831,250.0,0.0
15.58,3.3875,250.0,0.0
15.6,3.3919,250.0,0.0
15.62,3.3963,250.0,0.0
15.64,3.4006,250.0,0.1747
15.66,3.405,250.0,0.1717
15.68,3.4094,250.0,0.1495
15.7,3.4138,250.0,0.0
15.72,3.4181,250.0,0.1905
15.74,3.4225,250.0,0.0
15.76,3.4269,250.0,0.1737
15.78,3.4313,250.0,0.0
15.8,3.4356,250.0,0.1577
15.82,3.44,250.0,0.0
15.84,3.4444,250.0,0.1903
15.86,3.4488,250.0,0.0
15.88,3.4531,250.0,0.0
15.9,3.4575,250.0,0.0
15.92,3.4619,250.0,0.0
15.94,3.4663,250.0,0.0
15.96,3.4706,250.0,0.0
15.98,3.475,250.0,0.2547
16.0,3.4794,250.0,0.0
16.02,3.4838,250.0,0.2465
16.04,3.4881,250.0,0.0
16.06,3.4925,250.0,0.2253
16.08,3.4969,250.0,0.0
16.1,3.5013,250.0,0.2683
16.12,3.5056,250.0,0.0
16.14,3.51,250.0,0.0
16.16,3.5144,250.0,0.0
16.18,3.5188,250.0,0.0
16.2,3.5231,250.0,0.1425
16.22,3.5275,250.0,0.0
16.24,3.5319,250.0,0.1389
16.26,3.5363,250.0,0.0
16.28,3.5406,250.0,0.2022
16.3,3.545,250.0,0.0
16.32,3.5494,250.0,0.3353
16.34,3.5538,250.0,0.0
16.36,3.5581,250.0,0.352
16.38,3.5625,250.0,0.1616
16.4,3.5669,250.0,0.0
16.42,3.5713,250.0,0.1659
16.44,3.5756,250.0,0.0
16.46,3.58,250.0,0.1355
16.48,3.5844,250.0,0.0
16.5,3.5887,250.0,0.0
16.52,3.5931,250.0,0.0
16.54,3.5975,250.0,0.1477
16.56,3.6019,250.0,0.0
16.58,3.6063,250.0,0.3212
16.6,3.6106,250.0,0.0
16.62,3.615,250.0,0.0
16.64,3.6194,250.0,0.0
16.66,3.6238,250.0,0.0
16.68,3.6281,250.0,0.1594
16.7,3.6325,250.0,0.1292
16.72,3.6369,250.0,0.1646
16.74,3.6412,250.0,0.1843
16.76,3.6456,250.0,0.1728
16.78,3.65,250.0,0.1541
16.8,3.6544,250.0,0.1735
16.82,3.6588,250.0,0.173
16.84,3.6631,250.0,0.0
16.86,3.6675,250.0,0.0
16.88,3.6719,250.0,0.0
16.9,3.6763,250.0,0.0
16.92,3.6806,250.0,0.0
16.94,3.685,250.0,0.1365
16.96,3.6894,250.0,0.0
16.98,3.6937,250.0,0.1424
17.0,3.6981,250.0,0.0
17.02,3.7025,250.0,0.1411
17.04,3.7069,250.0,0.0
17.06,3.7113,250.0,0.0
17.08,3.7156,250.0,0.1263
17.1,3.72,250.0,0.0
17.12,3.7244,250.0,0.1928
17.14,3.7288,250.0,0.0
17.16,3.7331,250.0,0.0
17.18,3.7375,250.0,0.0
17.2,3.7419,250.0,0.0
